0.5877882242202759
0.576633632183075
0.5185227990150452
0.42159873247146606
0.29691702127456665
0.15576180815696716
0.0125994011759758
-0.11459939926862717
-0.22032970190048218
-0.30031657218933105
0.06764562427997589
0.04074516147375107
0.012854307889938354
-0.004361577332019806
-0.0011063739657402039
0.033950746059417725
0.09729237854480743
0.17192527651786804
0.23973822593688965
0.2820800840854645
0.06958635151386261
0.03132929652929306
-0.0034477170556783676
-0.02939935028553009
-0.04356568306684494
-0.04710686206817627
-0.039293691515922546
-0.022753313183784485
-0.0032762885093688965
0.015263229608535767
-0.16358038783073425
-0.2632320821285248
-0.3424813747406006
-0.40050795674324036
-0.44120562076568604
-0.46723321080207825
-0.46656620502471924
-0.43098247051239014
-0.35854947566986084
-0.24620088934898376
0.491909384727478
0.5386233329772949
0.538166880607605
0.48158568143844604
0.3649296760559082
0.20107834041118622
0.010796956717967987
-0.17882481217384338
-0.3380737900733948
-0.4472945034503937
-0.40751853585243225
-0.5645858645439148
-0.66886967420578
-0.7150052785873413
-0.7080731391906738
-0.6590011119842529
-0.5756475925445557
-0.467917263507843
-0.34707483649253845
-0.22089342772960663
0.2665061950683594
0.1800016164779663
0.08425424993038177
-0.012433052062988281
-0.10724395513534546
-0.19788511097431183
-0.28163549304008484
-0.3484111726284027
-0.3927697241306305
-0.40864530205726624
0.0313103049993515
-0.12159556150436401
-0.25901949405670166
-0.36945414543151855
-0.4493148624897003
-0.5022509098052979
-0.527527928352356
-0.5290637016296387
-0.5109467506408691
-0.47346317768096924
-0.1369836926460266
-0.17390115559101105
-0.21271242201328278
-0.24658039212226868
-0.25800445675849915
-0.22311601042747498
-0.1285041868686676
0.020790498703718185
0.202764630317688
0.3897266089916229
0.2884843945503235
0.2286122739315033
0.16017326712608337
0.08721867203712463
0.007007069885730743
-0.08205847442150116
-0.17300006747245789
-0.2579938471317291
-0.3287033140659332
-0.3741254210472107
-0.27879756689071655
-0.30156099796295166
-0.3020254969596863
-0.2856440544128418
-0.259897381067276
-0.2275329828262329
-0.1814892590045929
-0.11624357104301453
-0.03137725591659546
0.07273989915847778
-0.5051344633102417
-0.38258206844329834
-0.19982311129570007
0.027794241905212402
0.2668125033378601
0.4784918427467346
0.6276201605796814
0.6922183036804199
0.6654454469680786
0.5632577538490295
-0.0541805624961853
-0.2451028823852539
-0.4094715714454651
-0.529370903968811
-0.5970549583435059
-0.6179803609848022
-0.5941110849380493
-0.5354639887809753
-0.45697808265686035
-0.3699599802494049
-0.24502655863761902
-0.2527197599411011
-0.2600783407688141
-0.26089373230934143
-0.24489744007587433
-0.1968650072813034
-0.10693628340959549
0.02357390522956848
0.1776423156261444
0.33771246671676636
0.24294988811016083
0.24855580925941467
0.2509368360042572
0.243758887052536
0.21243658661842346
0.15078221261501312
0.05864568427205086
-0.050296373665332794
-0.15785887837409973
-0.24683859944343567
-0.19069916009902954
-0.31349822878837585
-0.39970672130584717
-0.4418782591819763
-0.4424596130847931
-0.4110041558742523
-0.3536354899406433
-0.27917373180389404
-0.1976979523897171
-0.1197536438703537
-0.3010823428630829
-0.3376431465148926
-0.35699257254600525
-0.3574233651161194
-0.333050400018692
-0.27027657628059387
-0.15985843539237976
-0.008584603667259216
0.16441740095615387
0.34112945199012756
-0.402410626411438
-0.33517375588417053
-0.22054681181907654
-0.05674116313457489
0.14333581924438477
0.3536730408668518
0.5351693034172058
0.6534558534622192
0.6856405735015869
0.6294445991516113
-0.2457091063261032
-0.35975557565689087
-0.434980183839798
-0.4721871018409729
-0.4776384234428406
-0.4616861939430237
-0.4268532693386078
-0.3744920492172241
-0.3057073652744293
-0.21950340270996094
-0.5274078845977783
-0.4815899133682251
-0.39754199981689453
-0.27110129594802856
-0.09287810325622559
0.13706043362617493
0.393797367811203
0.6391531229019165
0.8295171856880188
0.9345078468322754
0.7677292823791504
0.7832623720169067
0.7306094169616699
0.6171492338180542
0.4528403878211975
0.26142194867134094
0.06534822285175323
-0.1160380095243454
-0.2667944133281708
-0.3783572316169739
-0.3527381122112274
-0.4870772957801819
-0.5776552557945251
-0.6217851638793945
-0.6270049214363098
-0.6028838753700256
-0.5499496459960938
-0.47123482823371887
-0.37307432293891907
-0.2594912648200989
-0.46233314275741577
-0.3214157223701477
-0.12961876392364502
0.10801820456981659
0.3704673647880554
0.6231870055198669
0.8167058229446411
0.912283182144165
0.8931708931922913
0.7678125500679016
-0.07924770563840866
-0.19508937001228333
-0.2893633246421814
-0.3455791473388672
-0.36428511142730713
-0.3547409176826477
-0.32363682985305786
-0.28030845522880554
-0.23408055305480957
-0.19156664609909058
-0.23653371632099152
-0.43243154883384705
-0.5867422223091125
-0.6897398829460144
-0.7398979067802429
-0.743043065071106
-0.6964715123176575
-0.6058502197265625
-0.4843180179595947
-0.3414468765258789
0.2866949141025543
0.4104679524898529
0.5322232246398926
0.6396099925041199
0.7048865556716919
0.7030010223388672
0.6202387809753418
0.4567767381668091
0.23528242111206055
-0.006390877068042755
0.048743173480033875
-0.08493812382221222
-0.2085406482219696
-0.3050186038017273
-0.3657808005809784
-0.3919169008731842
-0.3832482099533081
-0.3464347720146179
-0.296326607465744
-0.24523881077766418
-0.29275479912757874
-0.34420496225357056
-0.3700604736804962
-0.3769912123680115
-0.37347695231437683
-0.3657982349395752
-0.34302768111228943
-0.2980031967163086
-0.2257823497056961
-0.1211310476064682
0.035915687680244446
0.13357138633728027
0.23725444078445435
0.32593250274658203
0.3760119080543518
0.36900365352630615
0.2987070679664612
0.18114006519317627
0.04158440977334976
-0.0889754444360733
-0.01779717206954956
-0.14982464909553528
-0.2610749900341034
-0.3429344892501831
-0.39306265115737915
-0.41702350974082947
-0.4102848768234253
-0.37907034158706665
-0.3347169756889343
-0.280367374420166
-0.2610989212989807
-0.2962104380130768
-0.31582731008529663
-0.3192945718765259
-0.3061520457267761
-0.27358001470565796
-0.2118602991104126
-0.12091907858848572
-0.005624644458293915
0.12483639270067215
0.09239546954631805
0.1468961536884308
0.20370404422283173
0.25431421399116516
0.28420600295066833
0.284944087266922
0.2562945783138275
0.20026002824306488
0.12102506309747696
0.029528215527534485
-0.25361090898513794
-0.3821026086807251
-0.4751243591308594
-0.5259037613868713
-0.537359356880188
-0.5177714228630066
-0.46646857261657715
-0.38851580023765564
-0.2936908006668091
-0.1884644627571106
-0.3841753602027893
-0.42406100034713745
-0.4485045075416565
-0.44836199283599854
-0.4092073142528534
-0.31444522738456726
-0.16069984436035156
0.03365545719861984
0.23762008547782898
0.4194355607032776
-0.04452770948410034
0.03269278258085251
0.11742787063121796
0.20990213751792908
0.30942678451538086
0.4118681848049164
0.5040859580039978
0.5707509517669678
0.5967608094215393
0.5768553018569946
-0.26650097966194153
-0.403484046459198
-0.5057165622711182
-0.567297637462616
-0.5895901918411255
-0.5814456343650818
-0.5420761108398438
-0.47152379155158997
-0.37639516592025757
-0.2642934322357178
-0.64849853515625
-0.5051246285438538
-0.28494423627853394
0.0025717373937368393
0.32310235500335693
0.634729266166687
0.8798844218254089
1.0171582698822021
1.028163194656372
0.9191162586212158
0.6386600732803345
0.7514406442642212
0.7941057682037354
0.7533096671104431
0.6226010322570801
0.41899821162223816
0.17715562880039215
-0.061059802770614624
-0.26119786500930786
-0.3970975875854492
-0.2278994917869568
-0.27005836367607117
-0.30774804949760437
-0.3411526679992676
-0.3671894073486328
-0.3658496141433716
-0.3164514899253845
-0.21096138656139374
-0.057702407240867615
0.12801694869995117
-0.12676022946834564
0.11394874006509781
0.35967060923576355
0.5781040191650391
0.7265228033065796
0.781944751739502
0.7407057285308838
0.621300458908081
0.45478498935699463
0.2829141616821289
-0.008435875177383423
-0.08811317384243011
-0.16111671924591064
-0.22634965181350708
-0.2859712541103363
-0.33589744567871094
-0.3685760200023651
-0.3770643174648285
-0.3571505546569824
-0.3116908669471741
-0.28247731924057007
-0.2919100522994995
-0.28857192397117615
-0.26113608479499817
-0.19568979740142822
-0.07864393293857574
0.0886046439409256
0.2863660752773285
0.48255035281181335
0.6427521705627441
-0.22251386940479279
-0.1036926880478859
0.03632689267396927
0.18118974566459656
0.31501907110214233
0.4222944378852844
0.490182101726532
0.5084367990493774
0.4732688069343567
0.395831435918808
-0.03963720053434372
-0.153733491897583
-0.24602754414081573
-0.30732738971710205
-0.3389938771724701
-0.3469913601875305
-0.3334691524505615
-0.3049156963825226
-0.2707696855068207
-0.23527966439723969
-0.05964771658182144
-0.02618291601538658
0.02015279233455658
0.08141911029815674
0.1436462700366974
0.200389102101326
0.24434570968151093
0.26517540216445923
0.26516586542129517
0.24788814783096313
0.16315266489982605
0.13500139117240906
0.09486954659223557
0.04363848268985748
-0.01971518248319626
-0.09253637492656708
-0.1627717912197113
-0.21847543120384216
-0.24984502792358398
-0.2502065896987915
-0.21311980485916138
-0.23407645523548126
-0.23786866664886475
-0.22640997171401978
-0.2060449719429016
-0.17923523485660553
-0.13699030876159668
-0.0766451433300972
-0.0011576414108276367
0.08805377781391144
-0.05932280421257019
0.15432918071746826
0.3748842179775238
0.5729160904884338
0.7061660289764404
0.7456687688827515
0.6888163089752197
0.5516760945320129
0.36391210556030273
0.16406023502349854
-0.21374626457691193
-0.28843146562576294
-0.33113211393356323
-0.34161660075187683
-0.3261387348175049
-0.29119494557380676
-0.23736529052257538
-0.17441922426223755
-0.1093849167227745
-0.04152722656726837
-0.05561390891671181
-0.06673435866832733
-0.08604539930820465
-0.11180892586708069
-0.13702800869941711
-0.1435844600200653
-0.11213477700948715
-0.038915615528821945
0.0715218037366867
0.20235978066921234
0.1367126852273941
0.0697399228811264
0.003532588481903076
-0.052829671651124954
-0.10139522701501846
-0.14383724331855774
-0.172744482755661
-0.18731580674648285
-0.1899259090423584
-0.18227282166481018
-0.1871657371520996
-0.25685420632362366
-0.30104708671569824
-0.3169599771499634
-0.3086633086204529
-0.2859058380126953
-0.25041675567626953
-0.20603153109550476
-0.1542665958404541
-0.09489011764526367
-0.03493422269821167
-0.0645090639591217
-0.09858348965644836
-0.12794646620750427
-0.14150641858577728
-0.12248960882425308
-0.06233717128634453
0.03505881130695343
0.15181662142276764
0.26716339588165283
-0.08583107590675354
0.049590952694416046
0.1857720911502838
0.30501672625541687
0.38385945558547974
0.40536829829216003
0.3671650290489197
0.28149718046188354
0.16703006625175476
0.0456312894821167
-0.22271499037742615
-0.28803372383117676
-0.3276975452899933
-0.3384699523448944
-0.3201436698436737
-0.274044007062912
-0.19867128133773804
-0.10030322521924973
0.006912648677825928
0.11372676491737366
-0.17860442399978638
-0.18659652769565582
-0.18356077373027802
-0.16057074069976807
-0.10793663561344147
-0.01854192465543747
0.10115266591310501
0.23400603234767914
0.3582150340080261
0.4525602459907532
0.32112646102905273
0.3427800238132477
0.3248993158340454
0.2691432237625122
0.17867574095726013
0.06206899881362915
-0.06344374269247055
-0.1836155503988266
-0.2841217517852783
-0.35465171933174133
-0.07413363456726074
-0.1622171401977539
-0.22588112950325012
-0.25801369547843933
-0.2595541477203369
-0.23825490474700928
-0.200711190700531
-0.15571343898773193
-0.10874035209417343
-0.06312376260757446
-0.34888526797294617
-0.2686292827129364
-0.13792429864406586
0.035188592970371246
0.22974345088005066
0.4152402877807617
0.5484755039215088
0.6026003956794739
0.5679225325584412
0.45296499133110046
0.2658882439136505
0.12986275553703308
-0.006415823474526405
-0.13028652966022491
-0.23747242987155914
-0.3312491476535797
-0.41299113631248474
-0.47719985246658325
-0.5168166160583496
-0.5221394300460815
-0.10830146074295044
-0.16616614162921906
-0.20697489380836487
-0.23309631645679474
-0.24472960829734802
-0.24042898416519165
-0.2117854356765747
-0.15659600496292114
-0.07765034586191177
0.02181963622570038
0.21140138804912567
0.14952383935451508
0.06981924176216125
-0.018978243693709373
-0.10793989896774292
-0.18455368280410767
-0.23482507467269897
-0.2508278489112854
-0.23762738704681396
-0.20565204322338104
-0.08798740804195404
-0.20688891410827637
-0.30433517694473267
-0.36712467670440674
-0.3919678330421448
-0.38596057891845703
-0.35188961029052734
-0.29832738637924194
-0.23988088965415955
-0.18361808359622955
0.03471101075410843
0.0247565358877182
0.013499369844794273
0.002935785800218582
-0.006031595170497894
-0.013056688010692596
-0.012250997126102448
-0.0022812634706497192
0.017612960189580917
0.051672156900167465
-0.1816854327917099
-0.3015251159667969
-0.39289551973342896
-0.4439404606819153
-0.4530108869075775
-0.42292192578315735
-0.35686466097831726
-0.2634492814540863
-0.15780609846115112
-0.05483733117580414
-0.377072274684906
-0.47160249948501587
-0.5252102017402649
-0.5342326164245605
-0.5005686283111572
-0.43294671177864075
-0.3327924609184265
-0.20732931792736053
-0.06850624829530716
0.07283063977956772
0.06288488209247589
-0.012061230838298798
-0.07783260941505432
-0.12151878327131271
-0.13687685132026672
-0.13024769723415375
-0.11589732021093369
-0.10516701638698578
-0.11057104170322418
-0.1418904960155487
-0.24559475481510162
-0.3375851511955261
-0.4021562933921814
-0.436087429523468
-0.43744245171546936
-0.4087172746658325
-0.34822604060173035
-0.2607519030570984
-0.1548563539981842
-0.039953358471393585
-0.07737520337104797
-0.14600972831249237
-0.201508566737175
-0.24076558649539948
-0.2634071707725525
-0.2674075961112976
-0.24644118547439575
-0.20176774263381958
-0.13840430974960327
-0.06100232154130936
-0.14655858278274536
-0.21121945977210999
-0.24873897433280945
-0.262018084526062
-0.25555911660194397
-0.23406197130680084
-0.1942870020866394
-0.1408015787601471
-0.08283841609954834
-0.02412310242652893
-0.4036215841770172
-0.5327240228652954
-0.6198556423187256
-0.6623998284339905
-0.6622809171676636
-0.6238422393798828
-0.5425401926040649
-0.4228980243206024
-0.2765297293663025
-0.11598081141710281
-0.21870048344135284
-0.2699519991874695
-0.2959393858909607
-0.2958143353462219
-0.2702447772026062
-0.22278448939323425
-0.1531587541103363
-0.06664147973060608
0.02947455644607544
0.12987229228019714
-0.22988760471343994
-0.38044488430023193
-0.49044233560562134
-0.5465733408927917
-0.5474913716316223
-0.5019801259040833
-0.4171462655067444
-0.3072183430194855
-0.19042015075683594
-0.08006595075130463
-0.18927055597305298
-0.3098270297050476
-0.3962487578392029
-0.44546884298324585
-0.4590020775794983
-0.4405129849910736
-0.3888571858406067
-0.3110975921154022
-0.21848058700561523
-0.11774389445781708
-0.26458537578582764
-0.1742611825466156
-0.051964133977890015
0.09441281110048294
0.24949945509433746
0.3958139419555664
0.507672131061554
0.5646398067474365
0.5538256764411926
0.4792962670326233
0.20621725916862488
0.26146024465560913
0.29816097021102905
0.31306254863739014
0.29544273018836975
0.23951539397239685
0.14638537168502808
0.024965547025203705
-0.10669031739234924
-0.2313469648361206
-0.06671429425477982
-0.17576566338539124
-0.26631736755371094
-0.33572059869766235
-0.3872721493244171
-0.42295336723327637
-0.43570518493652344
-0.4211491644382477
-0.37645524740219116
-0.296244740486145
-0.3074977397918701
-0.10533647984266281
0.13571593165397644
0.39393386244773865
0.6336480379104614
0.8174248933792114
0.9071012735366821
0.8870686888694763
0.7695227861404419
0.5806302428245544
-0.1883193701505661
-0.34975767135620117
-0.47739115357398987
-0.5611286163330078
-0.5913645625114441
-0.5696220397949219
-0.49848830699920654
-0.3875617980957031
-0.2560333013534546
-0.12308631092309952
-0.20818862318992615
-0.19362185895442963
-0.155118927359581
-0.10445883870124817
-0.05551151931285858
-0.01883336901664734
0.008386187255382538
0.030969254672527313
0.055412836372852325
0.08954545855522156
0.36967310309410095
0.5004808902740479
0.5983540415763855
0.6467181444168091
0.6313086748123169
0.552993893623352
0.42387712001800537
0.2623915672302246
0.0893864706158638
-0.07299333065748215
0.10730893164873123
-0.07727742940187454
-0.2493402510881424
-0.3938993215560913
-0.4998170733451843
-0.5634676218032837
-0.5776919722557068
-0.5445184707641602
-0.4769749939441681
-0.3885921537876129
-0.32084453105926514
-0.3766612112522125
-0.4088549315929413
-0.42860591411590576
-0.44359710812568665
-0.4514821469783783
-0.4340668022632599
-0.3779248893260956
-0.2765991687774658
-0.13084369897842407
-0.06457649171352386
-0.20272019505500793
-0.3118256628513336
-0.3777851462364197
-0.40160542726516724
-0.3937845230102539
-0.36115676164627075
-0.31719592213630676
-0.2732124328613281
-0.23329263925552368
-0.3919750452041626
-0.5266766548156738
-0.6177406907081604
-0.6644519567489624
-0.6731133460998535
-0.6509575247764587
-0.5926414728164673
-0.5007497668266296
-0.38010987639427185
-0.2336215227842331
-0.08333146572113037
-0.11536101251840591
-0.14806726574897766
-0.1807805597782135
-0.2031925618648529
-0.19250118732452393
-0.13619709014892578
-0.03549005836248398
0.0987417995929718
0.25059717893600464
0.01997087523341179
-0.1861201673746109
-0.3632645010948181
-0.4954404830932617
-0.5774095058441162
-0.613694429397583
-0.6068627238273621
-0.565619707107544
-0.5040289163589478
-0.43217283487319946
-0.31507763266563416
-0.41172048449516296
-0.47559717297554016
-0.5122286677360535
-0.5293452739715576
-0.5298764109611511
-0.5017249584197998
-0.4369663596153259
-0.33473673462867737
-0.1953318566083908
-0.2166759967803955
-0.29998329281806946
-0.36276665329933167
-0.39785704016685486
-0.4012998938560486
-0.3658372163772583
-0.28520476818084717
-0.16591328382492065
-0.025934554636478424
0.11571052670478821
-0.06118922308087349
-0.18344415724277496
-0.2835339903831482
-0.3493010401725769
-0.3737298250198364
-0.3639446198940277
-0.31866785883903503
-0.24394550919532776
-0.15788203477859497
-0.07005283236503601
-0.5251203775405884
-0.6499719619750977
-0.7291439771652222
-0.7629320025444031
-0.7547182440757751
-0.7095774412155151
-0.6189384460449219
-0.4824052155017853
-0.3105761706829071
-0.11237247288227081
-0.09275081008672714
-0.14284081757068634
-0.1709757149219513
-0.1714065968990326
-0.14351585507392883
-0.09241017699241638
-0.02796395868062973
0.03274744004011154
0.0755186378955841
0.10074928402900696
-0.164621502161026
-0.3244771361351013
-0.45105820894241333
-0.5309611558914185
-0.5615053772926331
-0.543788731098175
-0.47888725996017456
-0.37686219811439514
-0.2588442862033844
-0.1437050998210907
-0.18496374785900116
-0.28042274713516235
-0.3615310490131378
-0.4293835759162903
-0.4829697906970978
-0.5151839256286621
-0.5112624168395996
-0.46146854758262634
-0.3612968921661377
-0.2118634134531021
-0.013750964775681496
-0.06969483941793442
-0.09908444434404373
-0.09915906190872192
-0.07120829820632935
-0.030864641070365906
0.00010699033737182617
0.0071344077587127686
-0.01614248752593994
-0.0584554523229599
-0.6232932806015015
-0.758761465549469
-0.8336759805679321
-0.852820873260498
-0.8244503736495972
-0.7574092149734497
-0.6490746736526489
-0.5025190711021423
-0.32635951042175293
-0.12705956399440765
-0.4883398711681366
-0.6173586845397949
-0.7058779001235962
-0.7385193109512329
-0.7014483213424683
-0.5798560976982117
-0.37989580631256104
-0.1310536414384842
0.12618249654769897
0.3511596918106079
0.34872865676879883
0.10170231014490128
-0.1467318832874298
-0.3698582351207733
-0.546881914138794
-0.6611906290054321
-0.7088050842285156
-0.6952683925628662
-0.6395053863525391
-0.562296986579895
-0.3211873769760132
-0.5638865232467651
-0.7551131844520569
-0.8792532682418823
-0.9350965023040771
-0.9314689636230469
-0.8703245520591736
-0.7609760761260986
-0.6204222440719604
-0.45845848321914673
0.12488168478012085
0.32715851068496704
0.537611722946167
0.7296225428581238
0.8642975091934204
0.9078787565231323
0.8386513590812683
0.6641819477081299
0.4157816469669342
0.1382838636636734
0.14447757601737976
0.00043419748544692993
-0.1355312168598175
-0.25197383761405945
-0.34506160020828247
-0.41260582208633423
-0.4547550678253174
-0.4674183130264282
-0.45092013478279114
-0.41171374917030334
-0.4081880748271942
-0.547562301158905
-0.64110267162323
-0.6874069571495056
-0.6963292360305786
-0.6763888597488403
-0.6225796341896057
-0.5327798128128052
-0.4065096974372864
-0.24673087894916534
0.19984473288059235
0.43201735615730286
0.6248413920402527
0.7486581206321716
0.7768464684486389
0.7085279226303101
0.5624299049377441
0.37488842010498047
0.1836768090724945
0.021979331970214844
0.12283080816268921
-0.016035525128245354
-0.14737245440483093
-0.2590632736682892
-0.3460288941860199
-0.40592390298843384
-0.43228694796562195
-0.42550450563430786
-0.39759114384651184
-0.3566763997077942
-0.4310823082923889
-0.47221609950065613
-0.508603036403656
-0.540666937828064
-0.5539734363555908
-0.5184647440910339
-0.4130464196205139
-0.23432868719100952
-0.0005041658878326416
0.25767871737480164
0.914199948310852
0.9914759397506714
0.9859273433685303
0.9096168875694275
0.7755511999130249
0.5999650955200195
0.40402454137802124
0.2056300938129425
0.012352004647254944
-0.1641276478767395
-0.5554719567298889
-0.7210201025009155
-0.8267892599105835
-0.8772163391113281
-0.8864279985427856
-0.8608920574188232
-0.7962437868118286
-0.6912996768951416
-0.5499845147132874
-0.37361907958984375
-0.5596901178359985
-0.6089556217193604
-0.6003984808921814
-0.521522045135498
-0.36842191219329834
-0.1516423225402832
0.09347818791866302
0.3277827501296997
0.5123059749603271
0.6256036758422852
0.05660945177078247
-0.11346828937530518
-0.2619341015815735
-0.3708989918231964
-0.43871641159057617
-0.4698007106781006
-0.469058632850647
-0.44219547510147095
-0.39962273836135864
-0.34852170944213867
-0.19604003429412842
-0.427326500415802
-0.6211761236190796
-0.7608457207679749
-0.8439741134643555
-0.8713853359222412
-0.8392615914344788
-0.754853367805481
-0.6314603090286255
-0.47764813899993896
-0.1293240338563919
-0.027253083884716034
0.10147430747747421
0.23477265238761902
0.3449940085411072
0.41095590591430664
0.42491698265075684
0.3887893557548523
0.3135019540786743
0.2177964746952057
-0.2798762917518616
-0.4621810019016266
-0.6168668866157532
-0.7285866737365723
-0.7868252992630005
-0.7817452549934387
-0.7076491117477417
-0.573863685131073
-0.39724022150039673
-0.1988549530506134
-0.4329761564731598
-0.49415910243988037
-0.5435757637023926
-0.5988483428955078
-0.6612930297851562
-0.7067505121231079
-0.7021771669387817
-0.6163374185562134
-0.4365902543067932
-0.17283806204795837
-0.3407442271709442
-0.07026492804288864
0.23373159766197205
0.540560781955719
0.8038327693939209
0.9838178753852844
1.0511596202850342
0.9983728528022766
0.8381375074386597
0.6098983883857727
-0.480990469455719
-0.6083816289901733
-0.6876989603042603
-0.715976357460022
-0.698542594909668
-0.6367872953414917
-0.5313218235969543
-0.3887224793434143
-0.222754567861557
-0.04717321693897247
-0.3215615749359131
-0.37165898084640503
-0.41650211811065674
-0.44181686639785767
-0.42480966448783875
-0.33334118127822876
-0.1565876603126526
0.08734146505594254
0.35760805010795593
0.6095306277275085
0.23047038912773132
0.5507687926292419
0.8319649696350098
1.039959192276001
1.1326947212219238
1.0936378240585327
0.9373387098312378
0.6984114646911621
0.42455339431762695
0.16335588693618774
0.1501704454421997
0.17733706533908844
0.17661146819591522
0.1407051682472229
0.06748834252357483
-0.027880191802978516
-0.1181003600358963
-0.1867135763168335
-0.22293144464492798
-0.21988840401172638
-0.6770111322402954
-0.5778849124908447
-0.41224175691604614
-0.18723255395889282
0.07737640291452408
0.3569483757019043
0.6103436946868896
0.7978793382644653
0.8955626487731934
0.8976237773895264
0.3972153663635254
0.6818069219589233
0.9154919385910034
1.0726550817489624
1.128610372543335
1.0736485719680786
0.9181401133537292
0.6864277720451355
0.41101428866386414
0.1359291970729828
0.13721197843551636
0.06761282682418823
-0.010826552286744118
-0.09201289713382721
-0.17730113863945007
-0.26204320788383484
-0.33025193214416504
-0.37215206027030945
-0.3833560645580292
-0.36241835355758667
-0.548470139503479
-0.4536876976490021
-0.28532645106315613
-0.05264894664287567
0.21171769499778748
0.46542787551879883
0.6661250591278076
0.7825655937194824
0.7968102693557739
0.7194666862487793
0.40032005310058594
0.38859865069389343
0.34508538246154785
0.26904362440109253
0.15874047577381134
0.023424258455634117
-0.11972364038228989
-0.2472940981388092
-0.3405180871486664
-0.3887861371040344
-0.159433513879776
-0.18647316098213196
-0.20343191921710968
-0.20822016894817352
-0.19821962714195251
-0.1631557196378708
-0.09925129264593124
-0.01166892796754837
0.08830206841230392
0.18373745679855347
-0.09528295695781708
0.15144632756710052
0.39539697766304016
0.608853816986084
0.7534481287002563
0.8028260469436646
0.7511483430862427
0.6149158477783203
0.4284733831882477
0.23382583260536194
-0.1560324728488922
-0.25824791193008423
-0.3525365889072418
-0.4322695732116699
-0.49086055159568787
-0.5111671090126038
-0.48104244470596313
-0.39516639709472656
-0.26068079471588135
-0.09910917282104492
-0.5423264503479004
-0.5368409752845764
-0.4895402789115906
-0.3978120684623718
-0.2620970606803894
-0.0860113650560379
0.10684067755937576
0.28916439414024353
0.4337545335292816
0.5177854299545288
0.2542424499988556
0.47636157274246216
0.669845461845398
0.8135831356048584
0.8784183263778687
0.8472646474838257
0.7222687005996704
0.5264948010444641
0.29774367809295654
0.07710672914981842
0.21443063020706177
0.261069118976593
0.29124021530151367
0.30400022864341736
0.2871297597885132
0.23625221848487854
0.16216063499450684
0.07887939363718033
0.0011224150657653809
-0.060021936893463135
-0.3619067072868347
-0.19690023362636566
0.0063307806849479675
0.23102857172489166
0.44089335203170776
0.6022509336471558
0.6913636922836304
0.6986232995986938
0.6329814195632935
0.5142574310302734
0.23936504125595093
0.3202022314071655
0.37852662801742554
0.4096774458885193
0.4013528823852539
0.3427298665046692
0.23937472701072693
0.10734239965677261
-0.03144253045320511
-0.15458941459655762
-0.16669422388076782
-0.15553134679794312
-0.12616702914237976
-0.08170866966247559
-0.03167662024497986
0.017920633777976036
0.0698494017124176
0.12206076085567474
0.17090323567390442
0.2141263484954834
-0.3677676320075989
-0.2568623125553131
-0.11223327368497849
0.05876462161540985
0.2381824254989624
0.4042951464653015
0.5374002456665039
0.6208022832870483
0.640648365020752
0.5951085686683655
0.2741815447807312
0.2839791774749756
0.26220494508743286
0.20857304334640503
0.12183868139982224
0.007355924695730209
-0.11234168708324432
-0.21587949991226196
-0.2917855978012085
-0.33081093430519104
-0.1337699294090271
-0.1379326432943344
-0.12609785795211792
-0.09594182670116425
-0.049543995410203934
0.015153184533119202
0.09758292138576508
0.1876828968524933
0.27210474014282227
0.33640652894973755
0.2399497628211975
0.3272783160209656
0.3865903317928314
0.4100828170776367
0.38435131311416626
0.3069417178630829
0.1910211443901062
0.05632706359028816
-0.07100328803062439
-0.16775274276733398
-0.1017603650689125
-0.10988347977399826
-0.0893186703324318
-0.048043154180049896
-0.002595245838165283
0.029715687036514282
0.04370497539639473
0.03701965510845184
0.01627591997385025
-0.004687771201133728
-0.4420579671859741
-0.34733617305755615
-0.2136193811893463
-0.04945862293243408
0.126691997051239
0.28948718309402466
0.4136034846305847
0.4822200536727905
0.4957141578197479
0.4577160179615021
0.15445588529109955
0.10065515339374542
0.04137977957725525
-0.012723512947559357
-0.05672784149646759
-0.0912420004606247
-0.1131332516670227
-0.11822982132434845
-0.10872011631727219
-0.08502702414989471
-0.11374156922101974
-0.11826469749212265
-0.10605020076036453
-0.08009916543960571
-0.0438656210899353
0.006867703050374985
0.07542471587657928
0.15863610804080963
0.24768221378326416
0.33329933881759644
0.003488309681415558
0.09300722181797028
0.17962729930877686
0.25242042541503906
0.29970183968544006
0.3139455318450928
0.30054405331611633
0.26569581031799316
0.2154736965894699
0.1570858657360077
-0.011242254637181759
-0.07812240719795227
-0.13534212112426758
-0.17626267671585083
-0.19955025613307953
-0.20794348418712616
-0.19950641691684723
-0.1759263277053833
-0.1413736194372177
-0.0975642204284668
-0.07166403532028198
-0.128387913107872
-0.16656705737113953
-0.18107624351978302
-0.1726478934288025
-0.14272215962409973
-0.09486322104930878
-0.03886035084724426
0.01885446161031723
0.07541840523481369
-0.30813875794410706
-0.3686895966529846
-0.3991279602050781
-0.39698344469070435
-0.3681603968143463
-0.3159602880477905
-0.24379177391529083
-0.16178667545318604
-0.07673472166061401
0.005603477358818054
-0.11721884459257126
-0.21786248683929443
-0.29209160804748535
-0.3303409814834595
-0.3344244658946991
-0.31322330236434937
-0.27266740798950195
-0.2214014232158661
-0.16998609900474548
-0.12233593314886093
0.05096149817109108
0.11416596174240112
0.1777135729789734
0.2361958622932434
0.2801245152950287
0.29799434542655945
0.2852686047554016
0.23983114957809448
0.1640881896018982
0.071275494992733
-0.08173025399446487
-0.14778047800064087
-0.19767460227012634
-0.22269882261753082
-0.21993809938430786
-0.19470860064029694
-0.1536054015159607
-0.1054392158985138
-0.05904804915189743
-0.019253145903348923
-0.07803717255592346
-0.09373608231544495
-0.1008162796497345
-0.103065125644207
-0.10619254410266876
-0.10926395654678345
-0.10387812554836273
-0.08465026319026947
-0.04466109722852707
0.018070127815008163
-0.24172484874725342
-0.15422824025154114
-0.03771739453077316
0.10435181111097336
0.25386935472488403
0.3902425467967987
0.492448091506958
0.544614851474762
0.5354208946228027
0.4680189788341522
-0.2572387456893921
-0.3030043840408325
-0.31708502769470215
-0.3008404076099396
-0.2615205645561218
-0.20389622449874878
-0.13261210918426514
-0.05657941848039627
0.018174689263105392
0.08880670368671417
-0.2929823696613312
-0.2981675863265991
-0.28460994362831116
-0.24527008831501007
-0.1756344437599182
-0.06812316924333572
0.07761554419994354
0.24454745650291443
0.4125805199146271
0.5553051233291626
0.4701157808303833
0.3499126136302948
0.19777236878871918
0.02674775943160057
-0.15071141719818115
-0.3221871256828308
-0.4708806872367859
-0.578499972820282
-0.6394301652908325
-0.6521125435829163
-0.14136552810668945
-0.17064417898654938
-0.17615234851837158
-0.15532681345939636
-0.11260063946247101
-0.05714985728263855
0.004747927188873291
0.06536329537630081
0.1141890361905098
0.14859119057655334
-0.2069416046142578
-0.0988500714302063
0.0336834117770195
0.1806398630142212
0.3217572867870331
0.4269759953022003
0.4710603356361389
0.4438367187976837
0.34973087906837463
0.20652469992637634
0.030698999762535095
-0.11143017560243607
-0.24383437633514404
-0.357832133769989
-0.4486522972583771
-0.5138565897941589
-0.5487414598464966
-0.5471409559249878
-0.5101103782653809
-0.44070038199424744
-0.0895596593618393
-0.09198761731386185
-0.08030906319618225
-0.05378708988428116
-0.01540239155292511
0.03415955975651741
0.09736667573451996
0.16725486516952515
0.23734503984451294
0.30009526014328003
-0.11048181354999542
-0.19149616360664368
-0.2503321170806885
-0.2791025638580322
-0.2771252393722534
-0.2569834887981415
-0.22966763377189636
-0.20139676332473755
-0.1775500476360321
-0.15831510722637177
-0.13383594155311584
-0.21350666880607605
-0.2676159143447876
-0.29231661558151245
-0.2919294834136963
-0.27391955256462097
-0.2419242411851883
-0.20066499710083008
-0.15507414937019348
-0.10677359998226166
0.059179067611694336
0.08759009093046188
0.1096106767654419
0.1259903907775879
0.13431957364082336
0.12089750170707703
0.07569798827171326
0.003366231918334961
-0.08546306192874908
-0.1753135770559311
-0.2897064685821533
-0.37632042169570923
-0.4261898100376129
-0.4392985701560974
-0.42460042238235474
-0.38839447498321533
-0.32979458570480347
-0.2515820860862732
-0.1618480384349823
-0.06640248745679855
0.04817986488342285
-0.05402632802724838
-0.15721340477466583
-0.24834653735160828
-0.31797337532043457
-0.35920411348342896
-0.36371341347694397
-0.3314642310142517
-0.2629205882549286
-0.16470104455947876
-0.1457919329404831
-0.16140493750572205
-0.15492460131645203
-0.12701553106307983
-0.0818818137049675
-0.028384432196617126
0.030490219593048096
0.09097271412611008
0.14740651845932007
0.1968822181224823
-0.07110927999019623
-0.1717691719532013
-0.24719667434692383
-0.28774452209472656
-0.29522109031677246
-0.278714120388031
-0.244033545255661
-0.19755232334136963
-0.14674727618694305
-0.09425214678049088
-0.22253821790218353
-0.19061559438705444
-0.12288427352905273
-0.018611464649438858
0.11088020354509354
0.24420183897018433
0.35416463017463684
0.4193248450756073
0.4259600043296814
0.379533588886261
-0.07114476710557938
-0.1718961000442505
-0.2550627291202545
-0.3123818635940552
-0.33965402841567993
-0.34123724699020386
-0.3187292218208313
-0.2755415737628937
-0.21782076358795166
-0.15059852600097656
-0.05017754063010216
-0.11182912439107895
-0.1616361439228058
-0.19206684827804565
-0.19875533878803253
-0.1796182096004486
-0.12897619605064392
-0.05209646373987198
0.04049444943666458
0.13824224472045898
0.08426592499017715
-0.07616394758224487
-0.2165260761976242
-0.32512620091438293
-0.3949454724788666
-0.429309606552124
-0.43423932790756226
-0.4176909327507019
-0.3884541094303131
-0.3512161374092102
-0.21136943995952606
-0.2964452803134918
-0.3532841205596924
-0.3771745562553406
-0.3699764609336853
-0.3372354507446289
-0.28153806924819946
-0.20682483911514282
-0.11993768066167831
-0.02603907883167267
-0.27636855840682983
-0.26733797788619995
-0.22932890057563782
-0.16804736852645874
-0.09071320295333862
-0.0028441250324249268
0.08953942358493805
0.17771905660629272
0.24827171862125397
0.2923879623413086
0.021560639142990112
-0.11315181851387024
-0.2321774661540985
-0.3282136023044586
-0.398493230342865
-0.4446945786476135
-0.46770668029785156
-0.46702316403388977
-0.4458342492580414
-0.4065761864185333
-0.0332450196146965
-0.07585472613573074
-0.10695042461156845
-0.12771135568618774
-0.14569790661334991
-0.16139551997184753
-0.16604140400886536
-0.1509695202112198
-0.11402717977762222
-0.05409534275531769
0.22728292644023895
0.3429250419139862
0.42522358894348145
0.46405312418937683
0.45220625400543213
0.3910556137561798
0.29300129413604736
0.1785254180431366
0.06517339497804642
-0.030697688460350037
-0.30766963958740234
-0.45118629932403564
-0.5551051497459412
-0.6102573871612549
-0.6200441718101501
-0.5910988450050354
-0.5258325338363647
-0.4321385324001312
-0.32261183857917786
-0.20737212896347046
-0.2848814129829407
-0.2526080310344696
-0.19720804691314697
-0.11597206443548203
-0.0076944585889577866
0.12721316516399384
0.27410054206848145
0.41111838817596436
0.5166698098182678
0.573521077632904
-0.1478804498910904
-0.23348590731620789
-0.29199153184890747
-0.31680697202682495
-0.3071953058242798
-0.2711597681045532
-0.2133912593126297
-0.14162763953208923
-0.06740381568670273
0.0039493367075920105
-0.14750702679157257
-0.25069761276245117
-0.32613831758499146
-0.3680877089500427
-0.37805110216140747
-0.3580450713634491
-0.3051932156085968
-0.22232985496520996
-0.11759544163942337
1.290440559387207e-05
0.31709498167037964
0.25650423765182495
0.183528870344162
0.10674753785133362
0.03411169350147247
-0.03638143837451935
-0.10064796358346939
-0.15581114590168
-0.21272829174995422
-0.2730531096458435
-0.2686504125595093
-0.35527920722961426
-0.4049413800239563
-0.41273051500320435
-0.3846853971481323
-0.333088219165802
-0.26228439807891846
-0.18010170757770538
-0.09703195840120316
-0.020828813314437866
-0.04006216675043106
-0.11633335053920746
-0.1827816516160965
-0.223135843873024
-0.22396239638328552
-0.17451007664203644
-0.08498360216617584
0.02240157127380371
0.12780866026878357
0.21033315360546112
-0.20458123087882996
-0.3419417142868042
-0.4509672522544861
-0.5235885977745056
-0.5598894953727722
-0.564246416091919
-0.534899115562439
-0.47453463077545166
-0.3855934739112854
-0.2743138074874878
-0.16965487599372864
-0.26652371883392334
-0.3366783857345581
-0.3733643591403961
-0.383188933134079
-0.3717823326587677
-0.33611413836479187
-0.28056401014328003
-0.21313215792179108
-0.1336260735988617
-0.10853186249732971
-0.20007194578647614
-0.2701333165168762
-0.31390419602394104
-0.33047765493392944
-0.32485049962997437
-0.2958563268184662
-0.24876567721366882
-0.19551591575145721
-0.14053481817245483
-0.1455070525407791
-0.24358555674552917
-0.3121168613433838
-0.34385907649993896
-0.3406042158603668
-0.31061020493507385
-0.2575218677520752
-0.18998096883296967
-0.12021247297525406
-0.05396544933319092
-0.128010556101799
-0.24051377177238464
-0.33448392152786255
-0.3971494138240814
-0.4186604619026184
-0.38698068261146545
-0.29909104108810425
-0.16550025343894958
-0.009584970772266388
0.14909009635448456
0.14341425895690918
-0.005170784890651703
-0.13156630098819733
-0.21924549341201782
-0.2684728801250458
-0.28653663396835327
-0.28564536571502686
-0.27805542945861816
-0.2720676362514496
-0.26782774925231934
-0.335588276386261
-0.46093353629112244
-0.5440040826797485
-0.5813161134719849
-0.5817712545394897
-0.5535619258880615
-0.4978156089782715
-0.41541799902915955
-0.310002863407135
-0.18302589654922485
0.11000780761241913
0.2868177890777588
0.46072423458099365
0.6048787236213684
0.6934562921524048
0.7040399312973022
0.6262374520301819
0.47146427631378174
0.2663561999797821
0.0451902374625206
-0.07015213370323181
-0.20664194226264954
-0.31020259857177734
-0.36796820163726807
-0.3793705105781555
-0.3514859974384308
-0.2910943627357483
-0.2141735553741455
-0.14160701632499695
-0.08476331830024719
-0.18589185178279877
-0.2801772952079773
-0.3743025064468384
-0.4599404036998749
-0.5193142294883728
-0.5195155143737793
-0.4406384825706482
-0.28261521458625793
-0.06663170456886292
0.17524182796478271
0.033617645502090454
0.051091268658638
0.0657731145620346
0.06937605142593384
0.04989703744649887
0.0009882785379886627
-0.07064786553382874
-0.1500231772661209
-0.2204882651567459
-0.2668600082397461
-0.3101992607116699
-0.3833978772163391
-0.4259852170944214
-0.4376166760921478
-0.42402422428131104
-0.38809913396835327
-0.32605844736099243
-0.23871400952339172
-0.13393691182136536
-0.01671130210161209
-0.18906617164611816
-0.08725142478942871
0.038582175970077515
0.1667659878730774
0.2681676745414734
0.31911522150039673
0.30607107281684875
0.23852869868278503
0.13903820514678955
0.03360596299171448
-0.03347543627023697
-0.17405080795288086
-0.29313477873802185
-0.37767481803894043
-0.424747109413147
-0.440424382686615
-0.4273742139339447
-0.39020976424217224
-0.33540454506874084
-0.26627248525619507
-0.33036378026008606
-0.35039111971855164
-0.34319812059402466
-0.31100136041641235
-0.2555030584335327
-0.17046228051185608
-0.0516522154211998
0.09220533818006516
0.24519145488739014
0.38814863562583923
0.4069230556488037
0.5879193544387817
0.7263810634613037
0.8103348016738892
0.8224344253540039
0.7538097500801086
0.6116940975189209
0.41675639152526855
0.19691522419452667
-0.013420291244983673
-0.1507468819618225
-0.25389930605888367
-0.3345235586166382
-0.38596898317337036
-0.40828174352645874
-0.4011009931564331
-0.36019784212112427
-0.2867785692214966
-0.1922895908355713
-0.08469194918870926
-0.4254204034805298
-0.23454004526138306
0.0064611732959747314
0.2658253610134125
0.49575430154800415
0.6589477062225342
0.7264329195022583
0.6929819583892822
0.5741466283798218
0.3995131850242615
-0.17394337058067322
-0.28294509649276733
-0.3614713251590729
-0.4014289081096649
-0.4017946720123291
-0.3713650703430176
-0.31442445516586304
-0.23665651679039001
-0.15243574976921082
-0.06946300715208054
-0.10004757344722748
-0.1405043751001358
-0.17251253128051758
-0.19293548166751862
-0.1952223777770996
-0.1645093560218811
-0.08962860703468323
0.02852889522910118
0.1759416162967682
0.33227336406707764
0.5190746188163757
0.5471106171607971
0.527121365070343
0.4604324698448181
0.3538825809955597
0.21908649802207947
0.07650373131036758
-0.052883364260196686
-0.15991905331611633
-0.2379472702741623
-0.3307589292526245
-0.4645978808403015
-0.5616616010665894
-0.6190980076789856
-0.6379482746124268
-0.6219313144683838
-0.5710079073905945
-0.4892781674861908
-0.38381603360176086
-0.26032018661499023
-0.1433682143688202
-0.21850545704364777
-0.2620197832584381
-0.25256064534187317
-0.18149057030677795
-0.06254099309444427
0.07238571345806122
0.1900339126586914
0.26251333951950073
0.2787593901157379
