0.16818496584892273
0.1293189972639084
0.08085613697767258
0.027602266520261765
-0.02695835940539837
-0.08038601279258728
-0.1289149969816208
-0.16540169715881348
-0.1895321160554886
-0.20230711996555328
-0.002728685736656189
-0.027094990015029907
-0.0379447340965271
-0.03805699944496155
-0.031043529510498047
-0.020011264830827713
-0.010490939021110535
-0.007097654044628143
-0.008771896362304688
-0.015385247766971588
0.05591359734535217
0.060846008360385895
0.05938198044896126
0.05450889468193054
0.04576696455478668
0.0350954495370388
0.02673671394586563
0.027451157569885254
0.03789956867694855
0.05355890095233917
-0.056542254984378815
-0.012639712542295456
0.046142466366291046
0.11294956505298615
0.17483054101467133
0.22119483351707458
0.25068315863609314
0.25995132327079773
0.2459833025932312
0.21018855273723602
0.049485042691230774
0.21873420476913452
0.3811981976032257
0.5203369855880737
0.6179550886154175
0.6652048826217651
0.6637040376663208
0.6191220283508301
0.5410562753677368
0.4423454999923706
0.13403820991516113
0.07915674895048141
0.019610349088907242
-0.038171395659446716
-0.0940479263663292
-0.147561177611351
-0.1944126933813095
-0.23102626204490662
-0.25781410932540894
-0.27048349380493164
-0.052432164549827576
0.01177193969488144
0.0883512794971466
0.1667165905237198
0.2397301346063614
0.30080491304397583
0.3384057581424713
0.3468373119831085
0.32791414856910706
0.2805461883544922
-0.10824862122535706
-0.14204183220863342
-0.16188833117485046
-0.17381271719932556
-0.1834965944290161
-0.18785353004932404
-0.1793026328086853
-0.15657825767993927
-0.12160974740982056
-0.07731762528419495
-0.16904084384441376
-0.10257953405380249
-0.015371397137641907
0.07930546998977661
0.16467539966106415
0.22759079933166504
0.2606980502605438
0.26407092809677124
0.2457895278930664
0.21451517939567566
-0.11336473375558853
-0.15899598598480225
-0.19200271368026733
-0.21149592101573944
-0.22078728675842285
-0.21989449858665466
-0.20850443840026855
-0.18823742866516113
-0.16219493746757507
-0.1352105736732483
0.19949783384799957
0.2569791078567505
0.313295841217041
0.3652324676513672
0.4055445194244385
0.4290199279785156
0.4350448250770569
0.423574298620224
0.39068594574928284
0.33979207277297974
-0.30256229639053345
-0.29057008028030396
-0.25060907006263733
-0.19025322794914246
-0.11599001288414001
-0.03135824203491211
0.05670749396085739
0.14395755529403687
0.2213791310787201
0.2817932367324829
0.14987723529338837
0.15761467814445496
0.15473198890686035
0.14030328392982483
0.11415327340364456
0.07710069417953491
0.037681132555007935
0.002419404685497284
-0.02561689168214798
-0.04362022131681442
-0.05079788714647293
-0.06254325807094574
-0.06828827410936356
-0.06125815957784653
-0.038822583854198456
-0.0029669366776943207
0.043218646198511124
0.09189552813768387
0.13309624791145325
0.15704156458377838
-0.1647147238254547
-0.15983396768569946
-0.13003557920455933
-0.08314941823482513
-0.0319637805223465
0.016139674931764603
0.05931255593895912
0.09595755487680435
0.1238362118601799
0.1430952399969101
-0.17346052825450897
-0.12341150641441345
-0.0491880401968956
0.04276636987924576
0.1363578736782074
0.21033227443695068
0.25474777817726135
0.2687365412712097
0.25348609685897827
0.21986499428749084
0.44383275508880615
0.4246251881122589
0.3843342959880829
0.3291071057319641
0.26416197419166565
0.1937510222196579
0.12331007421016693
0.05948149412870407
0.0009398013353347778
-0.05374465137720108
-0.05970530956983566
-0.10656603425741196
-0.14414125680923462
-0.16960099339485168
-0.18220198154449463
-0.18345482647418976
-0.1701963245868683
-0.1402207463979721
-0.09523874521255493
-0.039747994393110275
0.18736523389816284
0.198125958442688
0.20716889202594757
0.2126360833644867
0.2069275975227356
0.1855735182762146
0.1453004628419876
0.09226453304290771
0.03090500831604004
-0.029585417360067368
0.11765642464160919
0.057317350059747696
-0.0008188355714082718
-0.04444083571434021
-0.06888430565595627
-0.0703357458114624
-0.04697994887828827
-0.00533449649810791
0.04366669803857803
0.09141510725021362
0.0438305139541626
-0.016630396246910095
-0.0707973763346672
-0.10662618279457092
-0.12314145267009735
-0.12246023118495941
-0.10884115099906921
-0.09224094450473785
-0.08185787498950958
-0.08087044954299927
-0.018093928694725037
-0.036349356174468994
-0.050138410180807114
-0.059772592037916183
-0.07118161022663116
-0.08506655693054199
-0.09613820165395737
-0.10099460184574127
-0.09822696447372437
-0.08614388853311539
-0.001567453145980835
-0.016939086839556694
-0.034032389521598816
-0.04765412583947182
-0.05963325500488281
-0.06600097566843033
-0.062779501080513
-0.049870312213897705
-0.030435271561145782
-0.0058299340307712555
0.26801353693008423
0.27154541015625
0.2655896842479706
0.2497132569551468
0.2219397872686386
0.18236622214317322
0.13771453499794006
0.09613928943872452
0.05534770339727402
0.017066895961761475
-0.07791397720575333
-0.12632489204406738
-0.16305994987487793
-0.18455646932125092
-0.19461123645305634
-0.19540591537952423
-0.19048619270324707
-0.18521463871002197
-0.18151108920574188
-0.17862701416015625
-0.1330386996269226
-0.13246551156044006
-0.1250353753566742
-0.10758188366889954
-0.08156253397464752
-0.045930445194244385
-0.0027635470032691956
0.04350261390209198
0.08707653731107712
0.12302331626415253
-0.00709337554872036
-0.06693602353334427
-0.1299169808626175
-0.18706074357032776
-0.23639626801013947
-0.27211010456085205
-0.2911318242549896
-0.2907772958278656
-0.2716309130191803
-0.23838427662849426
-0.13025683164596558
-0.14120230078697205
-0.14080601930618286
-0.12814435362815857
-0.10891059041023254
-0.09156984090805054
-0.08214715123176575
-0.08590058982372284
-0.10333014279603958
-0.12874072790145874
-0.0812351256608963
-0.1028156653046608
-0.11696217209100723
-0.12175823748111725
-0.12168888747692108
-0.11818712949752808
-0.11493587493896484
-0.11503339558839798
-0.11755958199501038
-0.12002724409103394
-0.0257435142993927
-0.015636324882507324
-0.009546324610710144
-0.007383652031421661
-0.012686207890510559
-0.02378031611442566
-0.040504902601242065
-0.06141344830393791
-0.08127816766500473
-0.09390822798013687
-0.07536322623491287
-0.07025613635778427
-0.060858435928821564
-0.048021040856838226
-0.03212010860443115
-0.012366250157356262
0.007673218846321106
0.024883516132831573
0.03771951049566269
0.04483109712600708
0.018004849553108215
-0.004285372793674469
-0.028400354087352753
-0.04789591580629349
-0.06014765053987503
-0.06012457236647606
-0.04618055745959282
-0.01706060767173767
0.02391105145215988
0.06902578473091125
0.048443086445331573
-0.008128732442855835
-0.06340638548135757
-0.11362333595752716
-0.15247774124145508
-0.17145323753356934
-0.16499480605125427
-0.13312137126922607
-0.07993803173303604
-0.011787816882133484
0.31727129220962524
0.29922813177108765
0.2596292495727539
0.20380349457263947
0.14165788888931274
0.08281409740447998
0.03333117067813873
-0.003690876066684723
-0.026093684136867523
-0.03006044775247574
0.1318897157907486
0.13395217061042786
0.1405639946460724
0.15146629512310028
0.1621125042438507
0.16675128042697906
0.16529931128025055
0.15968990325927734
0.14849022030830383
0.12806230783462524
-0.11836004257202148
-0.05356212705373764
0.004462927579879761
0.05175919830799103
0.08627144992351532
0.113379567861557
0.13574014604091644
0.15619435906410217
0.17931890487670898
0.2033822238445282
0.15280982851982117
0.14850309491157532
0.14096859097480774
0.13409249484539032
0.12850943207740784
0.12093979120254517
0.10699288547039032
0.08757644146680832
0.058524005115032196
0.019109368324279785
-0.22284086048603058
-0.2385062277317047
-0.23518864810466766
-0.21125318109989166
-0.16588740050792694
-0.10424226522445679
-0.037546299397945404
0.02316124737262726
0.0716715082526207
0.0981452614068985
-0.07317905128002167
-0.0778747946023941
-0.08287962526082993
-0.09052252769470215
-0.10237389802932739
-0.11749666184186935
-0.13814079761505127
-0.16388660669326782
-0.19081106781959534
-0.21669742465019226
0.15901510417461395
0.15226447582244873
0.1516723483800888
0.15846645832061768
0.1722230613231659
0.19167615473270416
0.20958158373832703
0.21715837717056274
0.2070389837026596
0.17682111263275146
0.04377944394946098
0.06375352293252945
0.08616837859153748
0.10598099231719971
0.1189521923661232
0.12779785692691803
0.12969329953193665
0.12548619508743286
0.11451968550682068
0.09700179100036621
0.2134731411933899
0.1156354695558548
0.00811111368238926
-0.09720964729785919
-0.19132226705551147
-0.26315590739250183
-0.3042587637901306
-0.3168467581272125
-0.3059646487236023
-0.27807995676994324
0.13012278079986572
0.07876688241958618
0.0351153165102005
0.005313999950885773
-0.014069940894842148
-0.025177452713251114
-0.03257317841053009
-0.04228903353214264
-0.05715275555849075
-0.07912128418684006
-0.05522676557302475
-0.03966128081083298
-0.02346123941242695
-0.0014068670570850372
0.02954936772584915
0.07318399846553802
0.12543173134326935
0.17899195849895477
0.22363142669200897
0.2511169910430908
0.26168733835220337
0.2508675456047058
0.2259780764579773
0.19162604212760925
0.1509539932012558
0.10773412883281708
0.0659359022974968
0.026844553649425507
-0.0115528404712677
-0.0458371601998806
0.3469753861427307
0.2260412722826004
0.09255336970090866
-0.03486068174242973
-0.14212338626384735
-0.22368204593658447
-0.2808770537376404
-0.31534475088119507
-0.3284383714199066
-0.321796178817749
-0.08528672903776169
-0.11076672375202179
-0.12190008908510208
-0.11823569238185883
-0.10933995246887207
-0.1038191020488739
-0.10768008232116699
-0.12271609902381897
-0.1444646567106247
-0.16806866228580475
-0.15274524688720703
-0.12724615633487701
-0.09008584916591644
-0.04227733239531517
0.011142648756504059
0.06653222441673279
0.1144058033823967
0.14506857097148895
0.1537812501192093
0.14317932724952698
-0.13682560622692108
-0.1413675844669342
-0.14062084257602692
-0.1392364203929901
-0.14401030540466309
-0.1533813774585724
-0.1581687331199646
-0.15409186482429504
-0.1370839774608612
-0.10509496182203293
-0.0873517096042633
-0.05507330596446991
-0.010343221947550774
0.04221353679895401
0.09831024706363678
0.1522311419248581
0.19603566825389862
0.22345326840877533
0.2278251051902771
0.20851626992225647
-0.2976391017436981
-0.31738612055778503
-0.31362587213516235
-0.28740689158439636
-0.2430707961320877
-0.18468326330184937
-0.11796978116035461
-0.04938964545726776
0.013126805424690247
0.06348054856061935
0.12305557727813721
0.10014748573303223
0.08981314301490784
0.09248246252536774
0.10252922028303146
0.1138555258512497
0.12192980945110321
0.1211840808391571
0.10565346479415894
0.07540996372699738
-0.108729287981987
-0.11013895273208618
-0.1069333478808403
-0.0967174544930458
-0.07920829951763153
-0.05158460885286331
-0.01594245433807373
0.024437297135591507
0.06280561536550522
0.09252411872148514
0.21740750968456268
0.1852010190486908
0.15199905633926392
0.11671866476535797
0.0776388868689537
0.03557561710476875
-0.011774338781833649
-0.06347465515136719
-0.1135561615228653
-0.15987783670425415
0.05646752938628197
0.08034312725067139
0.11028505861759186
0.14207646250724792
0.17257055640220642
0.1967615932226181
0.21185332536697388
0.21719878911972046
0.2097368836402893
0.18969576060771942
0.18885505199432373
0.1366325318813324
0.0909770280122757
0.05700615048408508
0.03629849851131439
0.028455015271902084
0.03067818284034729
0.036416202783584595
0.03719928115606308
0.026474222540855408
-0.16817711293697357
-0.15443655848503113
-0.1328568160533905
-0.10824020206928253
-0.08732093870639801
-0.07432741671800613
-0.07282951474189758
-0.07897768914699554
-0.08329913020133972
-0.08119557052850723
0.001882961019873619
-0.047881752252578735
-0.08431722223758698
-0.10176673531532288
-0.10373138636350632
-0.10031037032604218
-0.0980759859085083
-0.10403448343276978
-0.12080828845500946
-0.14615553617477417
0.08985762298107147
0.01174059510231018
-0.06372274458408356
-0.12785543501377106
-0.1794971227645874
-0.21370001137256622
-0.22756327688694
-0.2239515483379364
-0.2075514942407608
-0.18219688534736633
0.11087363213300705
0.1058589369058609
0.09290711581707001
0.07851271331310272
0.07225282490253448
0.0841616541147232
0.11413158476352692
0.1547512710094452
0.19471949338912964
0.22318381071090698
0.232207790017128
0.17364665865898132
0.11110464483499527
0.05111756920814514
-0.0013514459133148193
-0.04455317556858063
-0.08102056384086609
-0.11425493657588959
-0.1419634222984314
-0.1675490438938141
0.13894039392471313
0.08895158767700195
0.04174269735813141
0.00098361074924469
-0.03296533226966858
-0.061926256865262985
-0.08846905082464218
-0.11149726063013077
-0.12864680588245392
-0.14010241627693176
0.0298023521900177
-0.0008813515305519104
-0.02969166822731495
-0.05596523731946945
-0.07838521152734756
-0.09199969470500946
-0.09316599369049072
-0.07720577716827393
-0.04934808611869812
-0.015992596745491028
0.06602703779935837
0.08343640714883804
0.10053674876689911
0.11165949702262878
0.11222337931394577
0.10438616573810577
0.09063468873500824
0.07182974368333817
0.046949341893196106
0.018782980740070343
0.17906847596168518
0.1327677071094513
0.08841986209154129
0.0455000177025795
0.0013881288468837738
-0.046397753059864044
-0.09895020723342896
-0.15511232614517212
-0.21078859269618988
-0.2593153417110443
0.14297260344028473
0.1595333367586136
0.1744575798511505
0.18735459446907043
0.19741284847259521
0.20206435024738312
0.19727882742881775
0.17887958884239197
0.14503401517868042
0.09786878526210785
0.12565915286540985
0.1581534594297409
0.19118449091911316
0.22055599093437195
0.2390567511320114
0.24182890355587006
0.22356058657169342
0.18678578734397888
0.13490453362464905
0.07233112305402756
0.09667880833148956
0.08375248312950134
0.06736160069704056
0.04386307671666145
0.01081799902021885
-0.028255227953195572
-0.07100842148065567
-0.11189813911914825
-0.14579574763774872
-0.16906727850437164
0.09158632904291153
0.09806348383426666
0.10739180445671082
0.11574836075305939
0.11793069541454315
0.10798133909702301
0.08218677341938019
0.04170013219118118
-0.007049769163131714
-0.053934246301651
-0.003180490806698799
-0.07498283684253693
-0.13913440704345703
-0.19394707679748535
-0.24174395203590393
-0.28382861614227295
-0.32074007391929626
-0.34735575318336487
-0.3577346205711365
-0.3492886424064636
-0.1461915224790573
-0.12933842837810516
-0.10715945065021515
-0.09016188979148865
-0.08573555201292038
-0.0918859988451004
-0.10261576622724533
-0.10794398933649063
-0.10079902410507202
-0.07825224101543427
0.18267430365085602
0.1581725776195526
0.12873733043670654
0.09620428085327148
0.0616331472992897
0.024467114359140396
-0.011147279292345047
-0.042749084532260895
-0.07090833783149719
-0.09215117245912552
-0.08104430139064789
-0.1154937818646431
-0.13989877700805664
-0.15899263322353363
-0.1763828992843628
-0.19149799644947052
-0.2001722753047943
-0.19675415754318237
-0.18071448802947998
-0.15306870639324188
0.1560879349708557
0.08957312256097794
0.019534772261977196
-0.04737204313278198
-0.11015308648347855
-0.1660032719373703
-0.21140293776988983
-0.24380694329738617
-0.2654396593570709
-0.2744632363319397
-0.06431083381175995
-0.08116306364536285
-0.09455081820487976
-0.10553659498691559
-0.12096560746431351
-0.1479964554309845
-0.1879180669784546
-0.23635336756706238
-0.2817460596561432
-0.31374630331993103
0.1960107386112213
0.15175098180770874
0.1172870621085167
0.09650494903326035
0.0884920060634613
0.08602520823478699
0.08207840472459793
0.06965146213769913
0.043726008385419846
0.005982972681522369
0.1389196813106537
0.1037534773349762
0.07021751999855042
0.04406297206878662
0.027092183008790016
0.014539200812578201
0.0031060129404067993
-0.00877700001001358
-0.02286043018102646
-0.041314661502838135
-0.10576990991830826
-0.19336801767349243
-0.26827943325042725
-0.3220839202404022
-0.3534713387489319
-0.3654416799545288
-0.3576785624027252
-0.32910028100013733
-0.2807786762714386
-0.2171972393989563
0.08965657651424408
0.06360281258821487
0.03943290561437607
0.018460392951965332
0.0006051473319530487
-0.01614363119006157
-0.03469620645046234
-0.05122946947813034
-0.06311243772506714
-0.07157880067825317
-0.060303106904029846
-0.059972960501909256
-0.054509297013282776
-0.045061882585287094
-0.031674616038799286
-0.009360089898109436
0.022371992468833923
0.059603236615657806
0.09206514805555344
0.11539614200592041
-0.013024434447288513
-0.07090217620134354
-0.1191350668668747
-0.1530190110206604
-0.17244121432304382
-0.17553359270095825
-0.16290071606636047
-0.13863897323608398
-0.1091729998588562
-0.08022364974021912
-0.14177192747592926
-0.12784026563167572
-0.09363862872123718
-0.04455694556236267
0.013461694121360779
0.07547760009765625
0.13244327902793884
0.17755097150802612
0.2047782987356186
0.21051141619682312
-0.030178576707839966
-0.04341675713658333
-0.0435703843832016
-0.033823974430561066
-0.019440948963165283
-0.008470829576253891
-0.0067576877772808075
-0.015353962779045105
-0.03238224238157272
-0.05356401950120926
0.0033976249396800995
-0.004204504191875458
-0.005815379321575165
-0.006351307034492493
-0.008446507155895233
-0.014418233186006546
-0.023548603057861328
-0.030629269778728485
-0.03266191482543945
-0.03203043341636658
-0.06006474420428276
-0.10026044398546219
-0.1350325495004654
-0.16812226176261902
-0.20140522718429565
-0.22874805331230164
-0.2451062947511673
-0.24269598722457886
-0.21749448776245117
-0.17120984196662903
0.08384127914905548
0.11748448759317398
0.1520410031080246
0.18203017115592957
0.19826510548591614
0.19875821471214294
0.18539810180664062
0.16006779670715332
0.12440592795610428
0.08594409376382828
0.06894676387310028
0.08266597241163254
0.0919860377907753
0.09824211895465851
0.10227209329605103
0.10708925127983093
0.11439956724643707
0.12243390828371048
0.1292649805545807
0.132780522108078
0.17703421413898468
0.18085475265979767
0.18867282569408417
0.20009756088256836
0.2155151069164276
0.23510617017745972
0.2558765709400177
0.2733878791332245
0.2799217402935028
0.26888489723205566
0.14173036813735962
0.16303351521492004
0.18446451425552368
0.1988256722688675
0.20215140283107758
0.19481626152992249
0.1789165437221527
0.15580090880393982
0.12734770774841309
0.09445630759000778
0.08248160779476166
0.08081187307834625
0.07482090592384338
0.06000030040740967
0.03493775427341461
0.004531558603048325
-0.032346460968256
-0.07176710665225983
-0.10884104669094086
-0.14096559584140778
-0.059318263083696365
-0.08959634602069855
-0.11426107585430145
-0.1348845362663269
-0.14608243107795715
-0.13777688145637512
-0.11124053597450256
-0.07112427800893784
-0.02262195572257042
0.02437756583094597
0.2568460702896118
0.26871323585510254
0.25747257471084595
0.22476615011692047
0.17397603392601013
0.11096611618995667
0.04335571825504303
-0.021241571754217148
-0.0761021301150322
-0.11172626167535782
0.0915881097316742
0.09892326593399048
0.10701388120651245
0.1125427633523941
0.108341746032238
0.09339433908462524
0.07291752099990845
0.04785842075943947
0.018943119794130325
-0.010310888290405273
0.23705247044563293
0.18775030970573425
0.13413777947425842
0.08306258171796799
0.035380054265260696
-0.015613872557878494
-0.07132065296173096
-0.12603487074375153
-0.173272505402565
-0.2077716588973999
0.017210662364959717
0.008976131677627563
-0.0015491321682929993
-0.013566993176937103
-0.028864368796348572
-0.05146663263440132
-0.0799349695444107
-0.10594581067562103
-0.12200126051902771
-0.12417759001255035
-0.249246746301651
-0.22341129183769226
-0.1714964509010315
-0.10145969688892365
-0.030730493366718292
0.03199124336242676
0.08312968909740448
0.12500068545341492
0.15986236929893494
0.18821662664413452
