1962
1963
1965
1966
1969
1971
1972
1974
1976
1977
1980
1981
1983
1984
1987
1988
1991
1992
1994
1996
1997
1999
2001
2003
2004
2006
2008
2009
2011
2013
2014
2016
2017
2019
2020
2022
2024
2025
2027
2029
2030
2032
2036
2037
2039
2040
2042
2048
2049
2051
2053
2054
2056
2058
2060
2067
2068
2069
2071
2156
2341
2348
2628
2633
2635
2637
2640
2642
2647
2651
2652
2655
2657
2661
2664
2665
2667
2670
2671
2673
2675
2677
2679
2681
2683
2685
2687
2689
2691
2693
2695
2697
2699
2701
2703
2705
2707
2709
2711
2713
2715
2717
2719
2721
2723
2725
2727
2729
2731
2733
2735
2737
2739
2741
2743
2745
2747
2749
2751
2753
2755
2757
2759
2761
2763
2765
2767
2769
2771
2773
2775
2777
2779
2781
2783
2785
2787
2789
2791
2793
2795
2797
2799
2801
2803
2805
2807
2809
2811
2813
2815
2817
2819
2821
2823
2825
2827
2829
2831
2833
2835
2836
2838
2840
2841
2843
2845
2847
2849
2851
2853
2855
2857
2859
2861
2863
2865
2868
2869
2871
2873
2875
2877
2882
2883
2888
2890
2892
2895
2896
2898
2900
2906
2957
2958
2960
2962
2964
2966
2969
2970
2972
2976
2977
2979
2981
2989
2995
2999
3000
3002
3006
3007
3009
3059
3061
3066
3067
3069
3071
3072
3074
3076
3078
3080
3082
3084
3086
3088
3090
3092
3094
3098
3099
3101
3103
3104
3106
3108
3111
3114
3115
3117
3119
3121
3124
3125
3127
3132
3137
3140
3141
3143
3145
3147
3150
3151
3153
3156
3157
3159
3161
3163
3165
3167
3169
3171
3173
3175
3177
3179
3181
3183
3185
3187
3189
3191
3193
3195
3197
3199
3201
3203
3205
3207
3209
3211
3213
3215
3219
3224
3233
3239
3242
3245
3247
3249
3251
3252
3254
3256
3258
3260
3262
3264
3266
3269
3271
3273
3275
3277
3280
3282
3284
3286
3289
3292
3294
3296
3298
3300
3302
3304
3306
3308
3310
3314
3467
3470
3473
3475
3477
3479
3480
3482
3484
3486
3488
3490
3492
3494
3496
3498
3500
3502
3504
3506
3508
3510
3512
3514
3516
3518
3520
3522
3524
3526
3528
3530
3532
3534
3536
3538
3541
3542
3544
3547
3548
3550
3552
3554
3556
3558
3560
3561
3563
3565
3567
3569
3571
3573
3575
3577
3579
3581
3583
3585
3587
3589
3591
3593
3595
3597
3599
3601
3603
3605
3606
3608
3610
3611
3613
3615
3616
3620
3621
3624
3625
3627
3628
3633
3634
3666
3667
3672
3673
3677
3678
3681
3682
3685
3686
3689
3690
3692
3693
3696
3697
3700
3701
3704
3705
3708
3709
3712
3713
3715
3716
3719
3720
3722
3723
3726
3727
3730
3731
3734
3735
3738
3739
3742
3743
3746
3747
3749
3750
3752
3753
3755
3757
3758
3760
3761
3763
3765
3766
3768
3771
3774
3777
3778
3781
3783
3784
3787
3788
3791
3792
3796
3797
3800
3801
3804
3806
3811
3812
3814
3821
3822
3824
3827
3828
3830
3832
3833
3835
3837
3839
3841
3843
3845
3847
3849
3851
3853
3854
3856
3859
3860
3862
3864
3866
3869
3870
3872
3874
3875
3880
3884
3885
3897
3915
4104
4165
4354
4389
4420
4460
4583
4734
4912
5084
5184
5241
5288
5435
5548
5706
5761
5783
5832
5987
6065
6258
6263
6348
6378
6404
6505
6517
6575
6616
6843
6942
6963
7099
7111
7139
7180
7190
7205
7242
7255
7290
7498
7642
7693
7777
7914
7927
7974
8002
8019
8107
8173
10791
10829
10890
10918
10935
10940
10945
10950
10955
10969
10977
10982
10987
10992
11025
11026
11049
11057
11074
11087
11092
11097
11111
11125
11135
11152
11167
11172
11183
11188
11190
11209
11234
11239
11378
11407
11420
11427
11498
11512
11522
11662
11667
14668
14671
14735
14744
14747
14813
14887
14890
14892
14922
14926
15001
15024
15034
15057
15087
15091
15101
15105
15115
15147
15159
15165
15179
15191
15199
15209
15217
15221
15243
15263
15277
15293
15299
15302
15310
15314
15318
15328
15336
15344
15347
15348
15352
15356
15360
15386
15398
15402
15422
15435
15441
15457
15467
15496
15502
15508
15512
15544
15576
15594
15639
15648
15790
15798
15830
15848
15910
15922
15936
15950
15964
15978
16000
16024
16032
16042
16050
16078
16098
16116
16130
16142
16206
16220
16232
16240
16250
16276
16298
16312
16326
16336
16358
16370
16422
16442
16462
16484
16538
16570
16578
16600
16601
16621
16631
16661
16696
16856
16988
17081
17222
17529
17575
17584
17677
17899
18173
18221
18658
18686
18796
18878
18926
18928
19228
19234
19240
19250
19252
19254
19256
19258
19260
19266
19268
19270
19272
19278
19281
19284
19286
19289
19291
19293
19303
19311
19317
19319
19321
19354
19363
19370
19372
19374
19378
19381
19387
19400
19403
19406
19408
19411
19417
19420
19423
19426
19429
19431
19434
19436
19438
19440
19442
19444
19451
19453
19457
19459
19461
19474
19478
19480
19484
19486
19489
19492
19495
19497
19500
19506
19512
19518
19523
19525
19529
19533
19535
19537
19540
19543
19546
19548
19550
19552
19555
19558
19561
19564
19567
19569
19578
19580
19584
19587
19590
19593
19596
19599
19604
19606
19622
19624
19628
19630
19633
19636
19639
19642
19645
19648
19659
19689
19695
19705
19708
19711
19714
19717
19719
19723
19732
19734
19738
19740
19742
19748
19754
19826
19832
19838
19844
19851
19854
19857
19860
19863
19866
19868
19871
19874
19877
19879
19882
19885
19888
19897
19900
19902
19910
19916
19922
19941
19944
19962
19965
19968
19974
19977
19983
19986
20005
20011
20017
20023
20030
20033
20036
20038
20044
20046
20050
20052
20059
20062
20065
20068
20070
20072
20076
20079
20082
20085
20088
20090
20092
20094
20100
20124
20131
20133
20137
20139
20143
20146
20148
20166
20181
20184
20198
20204
20214
20216
20220
20224
20229
20239
20247
20266
20269
20272
20275
20278
20281
20284
20287
20289
20291
20297
20302
20304
20308
20310
20319
20321
20345
20350
20352
20374
20376
20395
20397
20399
20409
20412
20414
20416
20420
20427
20429
20431
20440
20442
20444
20447
20452
20454
20456
20460
20466
20471
20473
20475
20477
20479
20485
20487
20489
20494
20496
20498
20500
20502
20508
20514
20517
20520
20523
20526
20528
20530
20532
20534
20539
20541
20546
20551
20553
20556
20560
20564
20567
20569
20573
20576
20579
20582
20588
20590
20592
20594
20600
20603
20605
20608
20612
20614
20616
20620
20624
20626
20629
20631
20634
20637
20640
20643
20645
20647
20653
20655
20657
20659
20661
20663
20665
20669
20671
20677
20680
20684
20686
20688
20692
20694
20696
20698
20700
20702
20704
20706
20725
20727
20729
20731
20734
20737
20739
20746
20748
20750
20752
20754
20757
20759
20763
20765
20768
20771
20773
20775
20777
20780
20783
20785
20788
20792
20794
20798
20800
20803
20808
20814
20816
20819
20823
20825
20828
20830
20834
20836
20838
20841
20844
20847
20850
20853
20855
20857
20863
20865
20867
20869
20871
20873
20875
20897
20899
20901
20903
20905
20908
20912
20914
20916
20919
20926
20929
20931
20935
20937
20941
20945
20950
20954
20963
20965
20969
20971
20975
20977
20981
20986
20988
20992
20998
21000
21003
21006
21009
21011
21014
21016
21023
21025
21030
21032
21038
21053
21056
21063
21069
21071
21074
21080
21083
21096
21098
21103
21105
21107
21111
21114
21117
21163
21165
21180
21187
21201
23938
23942
23950
23951
23952
23953
23954
23955
23956
23957
23958
23959
23960
23961
23962
23963
23964
23965
23966
23967
24220
24224
24239
24240
24241
24242
24243
24409
24561
24601
24604
24607
24610
24615
24616
24617
24618
24619
24620
24622
24917
24920
24923
24926
25074
25165
25215
25868
25873
25893
25901
25919
25929
25934
26005
26019
26024
26027
26030
26033
26036
26039
26042
26048
26051
26056
26061
26066
26071
26074
26077
26080
26093
26099
26102
26105
26108
26111
26116
26119
26122
26125
26128
26131
26134
26137
26140
26143
26146
26149
26152
26155
26158
26161
26164
26167
26170
26173
26176
26179
26182
26187
26193
26196
26202
26208
26214
26221
26224
26232
26236
26240
26244
26249
26252
26255
26258
26261
26264
26267
26270
26273
26276
26279
26282
26285
26288
26291
26294
26297
26300
26303
26306
26309
26312
26315
26318
26321
26324
26327
26330
26333
26336
26340
26344
26348
26352
26356
26360
26365
26369
26373
26377
26381
26385
26389
26392
26397
26400
26403
26406
26411
26414
26421
26426
26429
26432
26435
26438
26441
26444
26447
26452
26455
26458
26461
26464
26467
26470
26473
26476
26479
26484
26487
26490
26496
26499
26502
26520
26536
26544
26549
26554
26557
26562
26567
26570
26573
26576
26583
26589
26595
26598
26605
26609
26616
26620
26623
26628
26631
26636
26641
26644
26654
26661
26665
26671
26674
26679
26685
26688
26691
26694
26697
26700
26703
26706
26709
26712
26715
26718
26721
26724
26727
26730
26733
26736
26739
26742
26745
26748
26784
26790
26818
26904
27274
27275
27284
27287
27337
27340
27341
27342
27344
27355
27367
27368
27370
27377
27379
27388
27392
27393
27399
27411
27421
27422
27423
27425
27431
27432
27440
27446
27447
27448
27452
27453
27463
27465
27487
27489
27493
27499
27503
27512
27534
27535
27537
27595
27600
27630
27632
27635
27637
27641
27642
27644
27653
27679
27691
27692
27696
27701
27711
27713
27714
27715
27727
27729
27730
27733
27741
27743
27744
27750
27755
27765
27766
27767
27768
27770
27771
27772
27773
27774
27775
27776
27777
27778
27780
27782
27785
27786
27794
27805
27833
27834
27836
27849
27854
27862
27867
27889
27890
27892
27894
27907
27925
27932
27947
27948
27951
27955
27972
27973
27976
27977
27991
27996
27999
28004
28007
28009
28015
28017
28027
28032
28036
28046
28048
28053
28065
28086
28091
28096
28106
28110
28114
28115
28116
28119
28123
28126
28138
28139
28148
28149
28156
28165
28174
28182
28208
28215
28217
28224
28236
28239
28241
28248
28250
28251
28257
28266
28278
28283
28284
28294
28295
28297
28307
28310
28311
28313
28318
28320
28326
28333
28334
28335
28336
28344
28350
28354
28360
28361
28378
28381
28384
28411
28418
28433
28440
28449
28452
28453
28454
28460
28462
28464
28465
28468
28470
28486
28487
28496
28510
28511
28512
28513
28515
28522
28523
28531
28535
28538
28542
28543
28544
28545
28549
28555
28556
28559
28561
28575
28588
28589
28590
28617
28620
28621
28624
28625
28630
28640
28651
28655
28658
28701
28703
28722
28745
28746
28766
28772
28788
28799
28813
28818
28833
28834
28846
28847
28866
28879
28880
28884
28916
28918
28930
28950
28951
28956
28962
28977
28978
28992
28998
29006
29013
29023
29025
29029
29034
29036
29044
29049
29050
29054
29060
29072
29074
29077
29078
29081
29085
29086
29087
29090
29092
29099
29100
29102
29108
29112
29124
29125
29128
29129
29148
29157
29158
29165
29166
29167
29172
29182
29188
29192
29194
29203
29204
29205
29207
29209
29211
29212
29213
29214
29216
29222
29223
29226
29228
29230
29235
29246
29250
29261
29262
29271
29289
29293
29294
29295
29310
29311
29314
29315
29321
29327
29341
29344
29359
29380
29395
29396
29432
29445
29449
29463
29465
29482
29486
29487
29489
29497
29518
29524
29532
29585
29586
29626
29628
29633
29639
29640
29644
29656
29657
29663
29667
29668
29684
29686
29687
29698
29699
29735
29746
29751
29752
29753
29757
29759
29760
29784
29793
29796
29799
29800
29812
29818
29838
29839
29842
29844
29849
29863
29883
29885
29890
29893
29902
29903
29916
29920
29923
29924
29925
29926
29927
29928
29929
29939
29945
29946
29951
29964
29979
29980
29981
29984
30007
30008
30020
30021
30023
30031
30041
30042
30060
30071
30072
30073
30074
30079
30105
30106
30111
30112
30119
30127
30128
30132
30141
30178
30189
30218
30608
30686
30689
30690
30691
30692
30693
30694
30695
30696
30700
30701
30702
30703
30704
30705
30706
30707
30708
30725
30796
31098
31224
31243
31501
31656
31658
31659
31660
31720
32056
32236
32254
32288
32373
32375
32410
32416
32417
32418
32419
32420
32421
32422
32423
32424
32425
32426
32427
32429
32430
32431
32432
32433
32434
32435
32436
32437
32438
32439
32440
32441
32445
32446
32447
32456
32684
32726
32729
32736
32766
32893
32895
32897
32899
32901
32903
32905
32907
32909
32911
32913
32915
32917
32919
32921
32923
32925
32927
32928
32930
32931
32932
32935
32938
32939
32940
32944
32950
32952
32954
32957
32958
32960
32961
32964
32966
32974
33011
33013
33015
33016
33018
33020
33022
33024
33026
33028
33030
33032
33034
33036
33038
33040
33042
33044
33046
33048
33050
33052
33054
33056
33058
33060
33062
33064
33066
33068
33070
33072
33074
33076
33078
33080
33082
33084
33086
33088
33090
33092
33094
33096
33098
33100
33102
33104
33106
33108
33110
33112
33114
33116
33118
33120
33122
33124
33126
33131
33135
33136
33139
33141
34528
34530
34532
34534
34536
34537
34538
34539
34540
34541
34542
34543
34544
34545
34546
34547
34548
34549
34550
34551
34552
34553
34554
34555
34556
34557
34558
34559
34560
34561
34562
34563
34564
34565
34566
34567
34568
34569
34570
34571
34572
34573
34574
34575
34576
34577
34578
34579
34580
34581
34582
34583
34584
34585
34586
34587
34588
34589
34590
34591
34592
34593
34594
34595
34596
34597
34598
34599
34600
34601
34602
34603
34604
34605
34606
34607
34608
34609
34610
34611
34612
34613
34614
34615
34616
34617
34618
34619
34620
34621
34622
34623
34624
34625
34626
34627
34628
34629
34630
34631
34632
34633
34634
34635
34636
34637
34638
34639
34640
34751
34754
34756
34757
34759
34760
34762
34763
34765
34766
34769
34772
34775
34777
34778
34781
34788
34792
34796
34800
34804
34808
34821
34824
34830
34833
34843
34846
34850
34853
34856
34860
34863
34866
34869
34870
34873
34876
34879
34882
34885
34886
34888
34889
34892
34898
34899
34901
34902
34905
34915
34918
34921
34924
34928
34935
34937
34938
34941
34944
34946
34947
34949
34950
34952
34953
34956
34958
34959
34962
34965
34968
34971
34974
34977
34980
34983
34986
34989
34991
34992
34994
34995
34997
34998
35001
35004
35007
35010
35013
35016
35018
35019
35022
35025
35028
35031
35034
35037
35040
35043
35046
35049
35052
35056
35059
35066
35070
35077
35080
35083
35086
35089
35092
35095
35098
35101
35104
35107
35110
35117
35120
35123
35129
35130
35133
35136
35140
35144
35148
35155
35158
35165
35167
35168
35171
35174
35177
35180
35183
35186
35193
35196
35199
35202
35206
35209
35212
35216
35218
35219
35221
35222
35225
35228
35231
35234
35237
35240
35243
35247
35250
35253
35256
35257
35259
35260
35263
35269
35270
35272
35273
35276
35279
35282
35285
35288
35291
35294
35297
35300
35306
35312
35315
35322
35325
35328
35332
35336
35340
35343
35347
35351
35362
35366
35370
35377
35381
35385
35405
35408
35411
35414
35417
35419
35423
35426
35430
35432
35436
35438
35442
35446
35449
35452
35456
35459
35462
35463
35466
35469
35472
35475
35476
35478
35482
35484
35485
35488
35491
35493
35494
35497
35500
35503
35506
35509
35512
35514
35515
35518
35521
35524
35527
35530
35533
35536
35539
35545
35546
35548
35549
35551
35552
35554
35555
35557
35558
35560
35561
35563
35564
35566
35567
35569
35570
35572
35573
35575
35576
35579
35582
35584
35585
35587
35588
35591
35593
35594
35596
35597
35599
35600
35603
35605
35606
35608
35609
35611
35612
35614
35615
35617
35618
35620
35621
35623
35624
35626
35627
35629
35630
35632
35633
35635
35636
35639
35642
35644
35645
35647
35648
35650
35651
35654
35657
35659
35660
35662
35663
35665
35666
35668
35669
35671
35672
35675
35682
35684
35685
35687
35688
35691
35693
35694
35696
35697
35699
35700
35703
35706
35709
35711
35712
35715
35717
35718
35720
35721
35723
35724
35727
35730
35733
35735
35736
35739
35742
35745
35748
35751
35754
35756
35757
35759
35760
35763
35766
35769
35772
35775
35778
35781
35784
35787
35790
35793
35796
35799
35804
35805
35807
35808
35823
35826
35829
35832
35836
35839
35846
35849
35852
35855
35858
35861
35864
35866
35867
35870
35873
35876
35879
35882
35885
35888
35891
35894
35897
35900
35903
35906
35909
35912
35915
35918
35921
35923
35924
35927
35930
35933
35935
35936
35939
35942
35945
35948
35951
35953
35954
35957
35959
35960
35963
35966
35969
35972
35975
35978
35981
35984
35986
35987
35989
35990
35993
35995
35996
35998
35999
36002
36005
36008
36011
36014
36017
36019
36020
36022
36023
36025
36026
36029
36032
36035
36038
36040
36041
36044
36047
36049
36050
36053
36055
36056
36058
36059
36062
36065
36067
36068
36070
36071
36074
36077
36080
36083
36086
36089
36091
36092
36094
36095
36098
36101
36103
36104
36107
36110
36113
36116
36119
36122
36125
36128
36131
36134
36137
36139
36140
36142
36143
36146
36149
36152
36155
36158
36161
36164
36167
36170
36172
36173
36175
36176
36179
36182
36185
36188
36191
36194
36197
36200
36203
36206
36209
36212
36214
36215
36218
36229
36232
36236
36243
36247
36251
36253
36254
36257
36261
36264
36267
36270
36274
36277
36280
36283
36286
36289
36290
36292
36293
36295
36296
36299
36302
36303
36305
36308
36309
36311
36314
36315
36317
36318
36320
36324
36326
36327
36329
36333
36336
36340
36346
36347
36349
36350
36352
36353
36356
36358
36359
36361
36362
36364
36365
36367
36370
36373
36376
36378
36379
36381
36382
36386
36388
36389
36391
36397
36399
36400
36402
36403
36406
36408
36409
36411
36414
36417
36420
36423
36427
36430
36433
36434
36438
36439
36443
36445
36446
36448
36452
36454
36455
36457
36458
36461
36464
36467
36470
36473
36476
36479
36482
36483
36487
36488
36492
36494
36495
36498
36502
36505
36507
36510
36511
36514
36517
36520
36521
36525
36527
36530
36533
36536
36537
36540
36543
36546
36549
36550
36553
36556
36559
36562
36565
36568
36571
36574
36577
36580
36583
36586
36589
36590
36592
36595
36598
36601
36602
36605
36607
36610
36613
36616
36619
36622
36625
36628
36631
36634
36637
36640
36643
36646
36649
36652
36655
36658
36661
36664
36667
36670
36673
36676
36769
36772
36782
36795
36811
36813
36822
36825
36828
36831
36834
36843
36846
36847
36849
36858
36861
36870
36876
36879
36914
36917
36918
36924
36926
36929
36931
36934
36940
36941
36943
36953
36955
36961
36963
36969
36972
36973
36975
36978
36981
36984
36986
37012
37015
37018
37020
37023
37029
37031
37034
37035
37037
37040
37046
37049
37052
37055
37061
37064
37067
37070
37073
37074
37076
37080
37087
37094
37097
37101
37106
37109
37116
37118
37121
37124
37130
37131
37133
37139
37142
37145
37148
37151
37152
37157
37167
37170
37173
37175
37179
37182
37185
37188
37194
37197
37200
37201
37203
37213
37215
37224
37227
37237
37240
37243
37246
37249
37252
37258
37261
37264
37268
37281
37288
37291
37298
37300
37306
37312
37316
37326
37329
37332
37335
37338
37341
37344
37347
37350
37353
37356
37359
37362
37365
37368
37371
37374
37377
37380
37382
37385
37388
37391
37394
37397
37398
37400
37403
37406
37409
37410
37414
37415
37418
37421
37423
37424
37426
37429
37432
37434
37435
37437
37440
37442
37445
37448
37450
37453
37454
37457
37460
37461
37464
37467
37469
37472
37475
37478
37481
37484
37487
37490
37502
37505
37507
37509
37510
37512
37515
37517
37520
37521
37523
37525
37526
37531
37532
37535
37537
37539
37540
37542
37543
37545
37548
37551
37552
37555
37557
37559
37560
37562
37564
37567
37570
37571
37574
37576
37577
37579
37582
37584
37587
37588
37590
37593
37594
37596
37597
37599
37602
37605
37607
37608
37610
37612
37613
37615
37619
37621
37622
37624
37626
37627
37629
37632
37633
37635
37638
37639
37641
37644
37645
37647
37650
37651
37653
37655
37658
37661
37662
37664
37667
37668
37672
37675
37678
37681
37684
37687
37690
37693
37695
37698
37700
39059
40737
40751
40752
40758
40759
40782
40791
40800
40806
40840
40848
40849
40865
40886
40892
40904
40945
40971
41004
41010
41013
41019
41030
41042
41043
41044
41047
41080
41081
41087
41137
41147
41197
41282
41283
41321
41330
41394
41427
41469
41475
41510
41511
41518
41521
41535
41554
41612
41637
41640
41645
41646
41648
41662
41697
41709
41710
41750
41764
41774
41783
41784
41816
41850
41865
41871
41920
41929
41935
41940
41970
41987
42064
42065
42083
42102
42163
42231
42273
42325
42350
42368
42393
42416
42509
42525
42539
42553
42554
42568
42601
42602
42605
42614
42643
42645
42679
42703
42720
42783
42800
42811
42840
42933
42941
42966
42986
43006
43007
43008
43039
43054
43082
43087
43093
43142
43143
43196
43206
43220
43308
43346
43350
43384
43403
43416
43431
43432
43434
43455
43461
43468
43476
43479
43501
43508
43509
43531
43542
43615
43642
43673
43674
43706
43707
43734
43742
43750
43757
43788
43790
43815
43829
43839
43891
43903
43925
43961
43986
44005
44020
44038
44039
44053
46142
46193
46208
46270
46271
46273
46276
46279
46282
46285
46288
46291
46294
46296
46297
46331
46364
46490
46530
46695
46890
46910
46912
46913
46914
46915
46916
46917
46918
46919
46920
46921
46922
46923
46924
46925
46926
46927
46928
46929
46930
46931
46932
46933
46934
46935
46936
46937
46938
46939
46940
46941
46942
46943
46944
46945
46946
46947
46948
46949
46950
46951
46952
46953
46954
46955
46956
46957
46958
46959
46960
46961
46962
46963
46964
46965
46966
46967
46968
46969
46970
46971
46972
46973
46974
46975
46976
46977
46978
46979
46980
46981
46982
46983
46984
46985
46986
46987
46988
46989
46990
46991
46992
46993
46994
46995
46996
46997
46998
46999
47000
47001
47002
47003
47004
47005
47006
47007
47008
47058
47150
47151
47155
47157
47159
47161
47163
47165
47167
47169
47171
47173
47175
47177
47178
47179
47181
47183
47185
47187
47189
47191
47243
47244
47287
47297
47299
47309
47311
47315
47319
47335
47337
47380
47381
47397
47398
47444
47446
47448
47450
47452
47454
47456
47458
47460
47462
47515
47562
47564
47565
47566
47568
47570
47572
47573
47578
47585
47590
47598
47601
47604
47607
47608
47609
47610
47611
47612
47613
47614
47615
47616
47617
47618
47619
47620
47621
47622
47623
47624
47625
47626
47627
47628
47629
47630
47631
47632
47633
47634
47635
47636
47637
47638
47639
47640
47641
47642
47643
47644
47645
47646
47647
47648
47649
47650
47651
47652
47653
47654
47655
47656
47657
47658
47659
47660
47661
47662
47663
47664
47665
47666
47667
47668
47669
47670
47671
47672
47673
47706
47735
47737
47738
47774
47775
47815
47816
47977
47979
47981
47983
47985
47987
47989
47991
47993
47995
47997
47999
48001
48003
48005
48007
48009
48011
48013
48015
48017
48019
48021
48023
48025
48027
48029
48031
48033
48035
48037
48039
48041
48043
48045
48049
48051
48053
48057
48059
48061
48063
48065
48067
48069
48071
48073
48075
48077
48079
48081
48083
48085
48087
48089
48091
48093
48095
48097
48099
48101
48103
48105
48107
48109
48111
48113
48115
48117
48119
48121
48123
48125
48127
48129
48131
48133
48135
48137
48139
48141
48143
48145
48147
48149
48151
48153
48155
48157
48159
48161
48163
48165
48167
48169
48171
48173
48175
48177
48179
48181
48183
48185
48187
48189
48191
48193
48194
48195
48197
48199
48201
48204
48261
48262
48264
48265
48272
48273
48290
48299
48300
48303
48306
48314
48317
48320
48322
48323
48325
48326
48337
48340
48343
48345
48346
48348
48350
48351
48352
48353
48354
48357
48360
48363
48366
48369
48372
48375
48422
48424
48425
48465
48466
48480
48481
48496
48497
48499
48500
48501
48503
48505
48507
48509
48511
48513
48515
48517
48519
48521
48523
48525
48527
48529
48531
48533
48535
48537
48539
48541
48543
48545
48547
48549
48551
48553
48555
48557
48559
48561
48563
48565
48567
48569
48571
48573
48575
48577
48579
48581
48583
48598
48626
48627
48629
48630
48650
48651
48656
48657
48699
48701
48702
48704
48705
50892
